#   omega [eV]     refractive_index      extinction_coeff       alpha[1/m]
0.000000     3.400496     0.000000     0.000000
0.015015     3.400528     0.000214     32.545495
0.030030     3.400624     0.000428     130.213116
0.045045     3.400784     0.000642     293.096254
0.060060     3.401009     0.000856     521.351148
0.075075     3.401298     0.001071     815.197259
0.090090     3.401651     0.001287     1174.918434
0.105105     3.402069     0.001503     1600.863745
0.120120     3.402552     0.001720     2093.449240
0.135135     3.403100     0.001937     2653.159732
0.150150     3.403714     0.002156     3280.550596
0.165165     3.404393     0.002375     3976.250414
0.180180     3.405138     0.002596     4740.963570
0.195195     3.405949     0.002818     5575.473676
0.210210     3.406827     0.003042     6480.646845
0.225225     3.407773     0.003267     7457.435876
0.240240     3.408786     0.003494     8506.885276
0.255255     3.409867     0.003722     9630.135380
0.270270     3.411017     0.003953     10828.429769
0.285285     3.412237     0.004186     12103.120002
0.300300     3.413526     0.004421     13455.673863
0.315315     3.414886     0.004658     14887.684581
0.330330     3.416318     0.004899     16400.878113
0.345345     3.417823     0.005142     17997.123650
0.360360     3.419400     0.005388     19678.448316
0.375375     3.421051     0.005637     21447.046353
0.390390     3.422778     0.005890     23305.297003
0.405405     3.424581     0.006146     25255.779552
0.420420     3.426461     0.006407     27301.294870
0.435435     3.428420     0.006672     29444.885145
0.450450     3.430459     0.006941     31689.859516
0.465465     3.432579     0.007215     34039.823219
0.480480     3.434781     0.007495     36498.710488
0.495495     3.437068     0.007780     39070.823693
0.510511     3.439441     0.008071     41760.874222
0.525526     3.441901     0.008368     44574.036642
0.540541     3.444452     0.008673     47516.008252
0.555556     3.447094     0.008985     50593.076431
0.570571     3.449831     0.009305     53812.204846
0.585586     3.452664     0.009634     57181.127410
0.600601     3.455597     0.009973     60708.466810
0.615616     3.458632     0.010322     64403.872296
0.630631     3.461772     0.010682     68278.184564
0.645646     3.465021     0.011055     72343.642422
0.660661     3.468382     0.011442     76614.122906
0.675676     3.471860     0.011843     81105.447604
0.690691     3.475459     0.012261     85835.753775
0.705706     3.479185     0.012698     90825.960198
0.720721     3.483041     0.013156     96100.347778
0.735736     3.487036     0.013636     101687.306485
0.750751     3.491175     0.014143     107620.278800
0.765766     3.495466     0.014680     113938.987241
0.780781     3.499918     0.015251     120691.041843
0.795796     3.504540     0.015861     127934.064971
0.810811     3.509344     0.016517     135738.544686
0.825826     3.514342     0.017227     144191.709196
0.840841     3.519550     0.018000     153402.892755
0.855856     3.524984     0.018850     163511.045163
0.870871     3.530664     0.019792     174695.464561
0.885886     3.536613     0.020848     187191.409717
0.900901     3.542858     0.022047     201313.228083
0.915916     3.549432     0.023428     217489.355615
0.930931     3.556370     0.025046     236316.320902
0.945946     3.563713     0.026977     258643.613239
0.960961     3.571502     0.029334     285708.886870
0.975976     3.579772     0.032284     319353.701102
0.990991     3.588522     0.036077     362358.334229
1.006006     3.597662     0.041084     418907.080615
1.021021     3.606872     0.047832     494989.336791
1.036036     3.615307     0.056916     597657.043554
1.051051     3.621193     0.068475     729455.286440
1.066066     3.622073     0.080721     872199.787106
1.081081     3.617728     0.088909     974196.338628
1.096096     3.613416     0.089695     996462.772141
1.111111     3.614627     0.086463     973711.567087
1.126126     3.620994     0.084477     964205.804976
1.141141     3.629329     0.085381     987521.743700
1.156156     3.638071     0.087984     1031008.273923
1.171171     3.648127     0.091895     1090823.001977
1.186186     3.659746     0.099181     1192405.101178
1.201201     3.670384     0.112037     1364016.894903
1.216216     3.675229     0.130236     1605413.143657
1.231231     3.669502     0.148567     1853976.503044
1.246246     3.654987     0.157335     1987344.909411
1.261261     3.642787     0.152551     1950126.620481
1.276276     3.641519     0.142047     1837471.412710
1.291291     3.649247     0.135340     1771309.832330
1.306306     3.659116     0.135627     1795706.340592
1.321321     3.665539     0.140061     1875729.163701
1.336336     3.668243     0.143146     1938822.374058
1.351351     3.671336     0.143308     1962822.269554
1.366366     3.676117     0.142855     1978369.033404
1.381381     3.681873     0.141789     1985184.713418
1.396396     3.690336     0.140210     1984403.879654
1.411411     3.701652     0.141192     2019793.188533
1.426426     3.712356     0.145770     2107463.012972
1.441441     3.720755     0.150659     2201083.180571
1.456456     3.730269     0.153992     2273210.090976
1.471471     3.743339     0.159724     2382123.653269
1.486486     3.756321     0.172126     2593295.990821
1.501502     3.762685     0.190136     2893570.667702
1.516517     3.758824     0.206837     3179214.239995
1.531532     3.748636     0.214057     3322755.056063
1.546547     3.742211     0.210289     3296266.713593
1.561562     3.746073     0.203951     3227963.407936
1.576577     3.756022     0.204167     3262452.011864
1.591592     3.762951     0.211601     3413450.544094
1.606607     3.762245     0.219163     3568792.000555
1.621622     3.757468     0.220378     3622114.643341
1.636637     3.753936     0.214546     3558899.012632
1.651652     3.755625     0.203124     3400354.209234
1.666667     3.765365     0.190604     3219768.112315
1.681682     3.780664     0.181826     3099152.667819
1.696697     3.797501     0.176256     3031032.604619
1.711712     3.816489     0.171406     2973722.349285
1.726727     3.840182     0.168902     2955988.586998
1.741742     3.867685     0.172596     3046893.487888
1.756757     3.895283     0.184466     3284510.689281
1.771772     3.918863     0.203684     3657701.897318
1.786787     3.936083     0.227442     4118952.343724
1.801802     3.946206     0.253798     4634880.522025
1.816817     3.946812     0.280465     5164555.278811
1.831832     3.937159     0.300930     5587212.353393
1.846847     3.923213     0.309128     5786463.114558
1.861862     3.913659     0.306209     5778410.486116
1.876877     3.912013     0.298297     5674503.708409
1.891892     3.917270     0.289977     5560366.411985
1.906907     3.926819     0.283473     5478790.892896
1.921922     3.938457     0.278388     5422878.464255
1.936937     3.951643     0.273550     5370259.531193
1.951952     3.967586     0.267989     5301870.442308
1.966967     3.988320     0.263516     5253493.551817
1.981982     4.012261     0.263735     5297991.539740
1.996997     4.034585     0.268119     5426856.583487
2.012012     4.054679     0.271147     5529412.457425
2.027027     4.078346     0.270775     5563039.499903
2.042042     4.110050     0.271701     5623401.640397
2.057057     4.148956     0.280630     5850915.227470
2.072072     4.189551     0.302520     6353338.012793
2.087087     4.223211     0.338257     7155353.304973
2.102102     4.240402     0.381976     8138289.303446
2.117117     4.238065     0.419461     9000775.581426
2.132132     4.227089     0.438472     9475440.010583
2.147147     4.222406     0.440821     9593286.431277
2.162162     4.230102     0.436420     9563931.881422
2.177177     4.247646     0.432874     9552092.849064
2.192192     4.270805     0.431106     9578684.573241
2.207207     4.300001     0.429363     9605306.084386
2.222222     4.338258     0.429569     9675297.136942
2.237237     4.385676     0.436556     9899101.373258
2.252252     4.439442     0.453742     10357845.987262
2.267267     4.496453     0.483184     11103467.531867
2.282282     4.552271     0.526332     12175111.796943
2.297297     4.601305     0.581349     13536227.867074
2.312312     4.641380     0.642464     15057007.863073
2.327327     4.676192     0.706250     16659403.562244
2.342342     4.708526     0.775146     18402526.806573
2.357357     4.737249     0.852350     20365125.230287
2.372372     4.759110     0.940849     22622790.213892
2.387387     4.765965     1.041988     25213263.012618
2.402402     4.748002     1.147731     27946633.753234
2.417417     4.705483     1.243392     30465135.223544
2.432432     4.649041     1.320225     32548586.226262
2.447447     4.589353     1.380110     34235010.914505
2.462462     4.528988     1.428583     35654854.373955
2.477477     4.466809     1.465569     36800995.140215
2.492492     4.406360     1.488300     37598264.057737
2.507508     4.354651     1.497847     38067408.988121
2.522523     4.317773     1.500836     38371777.808232
2.537538     4.296401     1.507708     38776904.964433
2.552553     4.284077     1.528198     39536457.734958
2.567568     4.267605     1.566397     40763115.433504
2.582583     4.233370     1.614284     42254972.075545
2.597598     4.179631     1.657155     43629323.000883
2.612613     4.112812     1.687654     44689133.307485
2.627628     4.035117     1.702121     45331251.529444
2.642643     3.951590     1.689410     45249830.461705
2.657658     3.883289     1.643927     44281789.340190
2.672673     3.849986     1.582621     42871262.408658
2.687688     3.850917     1.529891     41675701.659286
2.702703     3.871538     1.499705     41081639.734879
2.717718     3.896033     1.493113     41128267.288894
2.732733     3.915713     1.503645     41647214.610782
2.747748     3.928347     1.527471     42539588.974080
2.762763     3.928544     1.563291     43775077.285342
2.777778     3.909741     1.602967     45130021.006141
2.792793     3.874418     1.635020     46281279.662869
2.807808     3.830619     1.655626     47116515.046316
2.822823     3.781516     1.665754     47658246.628945
2.837838     3.728154     1.662150     47808080.493035
2.852853     3.677807     1.640536     47436078.797984
2.867868     3.640812     1.604155     46628243.030161
2.882883     3.622682     1.562502     45655301.092260
2.897898     3.621701     1.526230     44827704.740633
2.912913     3.629787     1.500966     44314090.153620
2.927928     3.640863     1.485000     44068725.094649
2.942943     3.653121     1.477819     44080511.297155
2.957958     3.661518     1.479246     44348188.343327
2.972973     3.662386     1.482823     44681096.253948
2.987988     3.660051     1.482210     44888186.750980
3.003003     3.662172     1.478114     44989089.028875
3.018018     3.672839     1.479340     45251534.361593
3.033033     3.683262     1.496186     45994552.233433
3.048048     3.677802     1.523384     47062474.043463
3.063063     3.655259     1.545012     47965754.551017
3.078078     3.625449     1.555239     48519951.821380
3.093093     3.592454     1.555845     48775632.022937
3.108108     3.557801     1.544008     48639514.542213
3.123123     3.529926     1.517421     48032877.571681
3.138138     3.518147     1.483761     47193207.288344
3.153153     3.520911     1.456858     46559224.842539
3.168168     3.524103     1.441847     46298913.453481
3.183183     3.518241     1.426511     46023575.128449
3.198198     3.512760     1.398651     45337583.673127
3.213213     3.521625     1.362930     44387087.837322
3.228228     3.546783     1.332065     43584598.140932
3.243243     3.581696     1.312284     43137077.927789
3.258258     3.622482     1.305122     43100293.108688
3.273273     3.664451     1.313876     43589317.106049
3.288288     3.700032     1.338392     44606363.758882
3.303303     3.723201     1.375431     46050135.490334
3.318318     3.727789     1.420068     47760717.554489
3.333333     3.709315     1.461852     49388486.971289
3.348348     3.671355     1.487912     50495343.147093
3.363363     3.624203     1.489300     50769118.106334
3.378378     3.582914     1.463245     50103591.533864
3.393393     3.563092     1.418532     48788417.977983
3.408408     3.568476     1.373314     47442208.377023
3.423423     3.588372     1.339179     46466810.613626
3.438438     3.612621     1.314305     45803723.877872
3.453453     3.639330     1.294818     45321673.409285
3.468468     3.667676     1.279049     44964381.303699
3.483483     3.699740     1.264532     44646455.629998
3.498498     3.739266     1.255268     44510404.634113
3.513514     3.781962     1.257116     44767248.047288
3.528529     3.821407     1.268794     45376229.489985
3.543544     3.855249     1.287163     46229043.871201
3.558559     3.881205     1.309415     47227483.176720
3.573574     3.899086     1.329866     48167514.973379
3.588589     3.913794     1.345678     48944987.736103
3.603604     3.926906     1.358549     49619887.371185
3.618619     3.938677     1.365497     50081472.832008
3.633634     3.955755     1.365606     50293297.713406
3.648649     3.981601     1.364690     50467260.545423
3.663664     4.015192     1.366551     50744034.976805
3.678679     4.056033     1.374708     51256139.463771
3.693694     4.100135     1.393032     52151357.055265
3.708709     4.141923     1.420858     53409296.246375
3.723724     4.178671     1.454137     54881551.917671
3.738739     4.212494     1.489156     56429833.615702
3.753754     4.247227     1.527886     58130008.964851
3.768769     4.280699     1.575985     60199816.572296
3.783784     4.304525     1.633575     62648249.978249
3.798799     4.314068     1.692284     65157301.665316
3.813814     4.313550     1.744455     67431488.797252
3.828829     4.309308     1.789348     69439149.714722
3.843844     4.303682     1.829078     71259299.283207
3.858859     4.297761     1.864007     72903769.095246
3.873874     4.293592     1.895495     74423751.911046
3.888889     4.291001     1.926354     75928553.211840
3.903904     4.287028     1.957112     77438740.929615
3.918919     4.280753     1.983641     78790320.591286
3.933934     4.277932     2.003751     79894041.901061
3.948949     4.282520     2.023247     80979281.199916
3.963964     4.290873     2.046321     82214236.358301
3.978979     4.301397     2.071837     83554658.220154
3.993994     4.314894     2.102575     85114283.079520
4.009009     4.325250     2.142054     87038401.071480
4.024024     4.324647     2.184533     89096907.314262
4.039039     4.314188     2.219455     90858998.044245
4.054054     4.302539     2.241736     92112270.194731
4.069069     4.297593     2.253299     92930322.476589
4.084084     4.304818     2.258467     93487163.751185
4.099099     4.327141     2.264930     94099366.839359
4.114114     4.361044     2.280093     95076327.785205
4.129129     4.400959     2.305620     96491638.723702
4.144144     4.444665     2.340812     98320678.965608
4.159159     4.490708     2.386623     100608091.275077
4.174174     4.536537     2.442900     103352208.320686
4.189189     4.581817     2.508908     106526627.542518
4.204204     4.625944     2.586799     110227498.010726
4.219219     4.664201     2.678181     114529000.984730
4.234234     4.691550     2.778470     119240569.257933
4.249249     4.711161     2.881072     124082290.404165
4.264264     4.730495     2.987926     129139020.725567
4.279279     4.751421     3.108012     134802151.775487
4.294294     4.767082     3.251029     141499900.939364
4.309309     4.763177     3.420234     149385000.336987
4.324324     4.725075     3.609496     158200668.348830
4.339339     4.641610     3.806273     167404488.449594
4.354354     4.505887     3.990937     176133575.352477
4.369369     4.324990     4.136244     183175937.289703
4.384384     4.127206     4.225832     187786518.080192
4.399399     3.941359     4.268852     190347882.319475
4.414414     3.779786     4.286418     191783472.013070
4.429429     3.639077     4.300342     193060891.600636
4.444444     3.498295     4.322247     194702064.518398
4.459459     3.334759     4.335557     195961467.547642
4.474474     3.155818     4.307891     195366588.026538
4.489489     2.996441     4.228379     192404113.340016
4.504505     2.887149     4.118338     188023662.898425
4.519520     2.832868     4.012400     183797658.744792
4.534535     2.817182     3.934964     180849362.538918
4.549550     2.820059     3.895548     179630659.645363
4.564565     2.822033     3.898302     180350918.140071
4.579580     2.797772     3.940023     182880700.768750
4.594595     2.720958     3.998216     186190272.341662
4.609610     2.586474     4.028650     188220641.783272
4.624625     2.428964     3.994171     187217601.899636
4.639640     2.297238     3.898558     183329273.497839
4.654655     2.216116     3.773578     178026387.316942
4.669670     2.184023     3.649333     172720221.379264
4.684685     2.188575     3.542295     168193271.899359
4.699700     2.218833     3.459898     164807477.988721
4.714715     2.265255     3.408001     162854104.485213
4.729730     2.315420     3.390982     162556881.814646
4.744745     2.354610     3.407123     163849156.975878
4.759760     2.370978     3.448937     166384889.161270
4.774775     2.355074     3.506742     169707178.225124
4.789790     2.297706     3.565013     173069717.292061
4.804805     2.199634     3.597231     175181265.943993
4.819820     2.085583     3.580463     174909527.387731
4.834835     1.989795     3.520075     172495230.790555
4.849850     1.925911     3.440650     169126761.378498
4.864865     1.888315     3.359249     165636685.060257
4.879880     1.870492     3.280944     162274938.544969
4.894895     1.870313     3.209932     159251216.964912
4.909910     1.882043     3.151695     156841599.891130
4.924925     1.897952     3.104561     154968448.008891
4.939940     1.918263     3.063696     153394861.717450
4.954955     1.946769     3.031322     152235286.724628
4.969970     1.982209     3.014030     151825568.508670
4.984985     2.017797     3.017188     152443780.694363
5.000000     2.042824     3.041710     154145669.299814
5.015015     2.046122     3.081503     156631245.890574
5.030030     2.020717     3.124443     159289363.909565
5.045045     1.965974     3.154091     161280832.677170
5.060060     1.894148     3.152975     161703631.460314
5.075075     1.829237     3.118618     160416182.886650
5.090090     1.786017     3.067011     158228361.916041
5.105105     1.761460     3.013589     155930938.341892
5.120120     1.747862     2.961188     153670178.595983
5.135135     1.745678     2.907727     151338359.637611
5.150150     1.758943     2.858291     149200381.248403
5.165165     1.783708     2.822036     147737368.106625
5.180180     1.809691     2.800746     147048990.301022
5.195195     1.830776     2.788069     146807729.997868
5.210210     1.848892     2.777466     146672125.484002
5.225225     1.869891     2.768768     146634142.644121
5.240240     1.895904     2.768115     147020819.724714
5.255255     1.922140     2.781485     148154209.027696
5.270270     1.940186     2.809996     150100498.204251
5.285285     1.941816     2.849226     152629626.850591
5.300300     1.922343     2.890487     155279810.796280
5.315315     1.881741     2.923565     157501716.390613
5.330330     1.825010     2.938159     158735095.766616
5.345345     1.763948     2.926745     158563826.169254
5.360360     1.714721     2.891933     157117920.884946
5.375375     1.686030     2.847625     155144067.946284
5.390390     1.673247     2.806340     153321821.233335
5.405405     1.668623     2.770423     151781156.547028
5.420420     1.669806     2.738801     150465533.988099
5.435435     1.675298     2.713133     149468250.359318
5.450450     1.680601     2.693495     148796295.115056
5.465465     1.683250     2.675528     148210915.502648
5.480480     1.685999     2.655526     147507027.957847
