#   omega [eV]     refractive_index      extinction_coeff       alpha[1/m]
0.000000     5.321614     0.000000     0.000000
0.015015     5.321948     0.002249     342.203475
0.030030     5.322952     0.004503     1370.640703
0.045045     5.324627     0.006770     3090.819773
0.060060     5.326979     0.009055     5512.014105
0.075075     5.330013     0.011364     8647.405388
0.090090     5.333737     0.013705     12514.289961
0.105105     5.338162     0.016084     17134.355577
0.120120     5.343300     0.018509     22534.037416
0.135135     5.349164     0.020987     28744.966732
0.150150     5.355772     0.023527     35804.526537
0.165165     5.363142     0.026139     43756.537094
0.180180     5.371296     0.028831     52652.098451
0.195195     5.380259     0.031617     62550.622987
0.210210     5.390059     0.034508     73521.108121
0.225225     5.400728     0.037518     85643.706665
0.240240     5.412301     0.040663     99011.675470
0.255255     5.424820     0.043961     113733.810944
0.270270     5.438328     0.047434     129937.513510
0.285285     5.452879     0.051106     147772.677271
0.300300     5.468531     0.055005     167416.676396
0.315315     5.485350     0.059164     189080.824190
0.330330     5.503410     0.063625     213018.838959
0.345345     5.522800     0.068435     239538.083467
0.360360     5.543617     0.073654     269014.696782
0.375375     5.565976     0.079355     301914.278334
0.390390     5.590009     0.085630     338820.631943
0.405405     5.615868     0.092597     380476.424896
0.420420     5.643731     0.100405     427841.809441
0.435435     5.673808     0.109255     482180.666211
0.450450     5.706338     0.119415     545190.181368
0.465465     5.741602     0.131250     619199.668587
0.480480     5.779910     0.145277     707481.648159
0.495495     5.821590     0.162233     814745.638211
0.510511     5.866929     0.183200     947923.309770
0.525526     5.916024     0.209780     1117379.601258
0.540541     5.968414     0.244325     1338565.223461
0.555556     6.022227     0.290065     1633300.587717
0.570571     6.072506     0.350431     2026541.945013
0.585586     6.109392     0.425619     2526124.670229
0.600601     6.121522     0.505079     3074600.661148
0.615616     6.111740     0.567534     3541152.789894
0.630631     6.102404     0.604988     3866919.438162
0.645646     6.106972     0.631135     4130093.695039
0.660661     6.123172     0.655544     4389587.261041
0.675676     6.150935     0.681536     4667354.433213
0.690691     6.189632     0.716109     5013099.281044
0.705706     6.233025     0.764336     5467026.686713
0.720721     6.274611     0.826861     6040082.695752
0.735736     6.307260     0.902146     6727323.420342
0.750751     6.325457     0.981395     7467635.573750
0.765766     6.336689     1.055193     8189765.799328
0.780781     6.350740     1.131453     8953835.774418
0.795796     6.356321     1.220904     9847516.898084
0.810811     6.338434     1.309734     10763318.058831
0.825826     6.307935     1.377759     11532013.240273
0.840841     6.286194     1.426615     12158051.777945
0.855856     6.283056     1.471941     12768342.712145
0.870871     6.294955     1.531277     13516087.928581
0.885886     6.304996     1.615528     14505600.132078
0.900901     6.292389     1.717117     15679076.836451
0.915916     6.251914     1.816627     16864169.641964
0.930931     6.190877     1.901245     17939036.222681
0.945946     6.118601     1.965433     18843786.941804
0.960961     6.043390     2.007329     19550944.757423
0.975976     5.975160     2.027602     20056970.248230
0.990991     5.920977     2.034117     20430977.773355
1.006006     5.880186     2.033039     20729543.853932
1.021021     5.853255     2.025595     20961907.613201
1.036036     5.844886     2.014216     21150689.337943
1.051051     5.860140     2.009303     21404876.399991
1.066066     5.890226     2.026199     21893228.269052
1.081081     5.915855     2.062112     22595092.630251
1.096096     5.936874     2.099883     23328528.600454
1.111111     5.970465     2.139980     24099652.858452
1.126126     6.019405     2.205322     25171123.428057
1.141141     6.056833     2.310207     26719830.077952
1.156156     6.055086     2.435504     28539666.339017
1.171171     6.014256     2.549988     30269281.527822
1.186186     5.954363     2.635012     31679550.619847
1.201201     5.900239     2.690640     32757816.637610
1.216216     5.869088     2.732685     33685568.659341
1.231231     5.861648     2.783494     34735491.189050
1.246246     5.864630     2.856466     36080828.854090
1.261261     5.863692     2.954167     37764490.904904
1.276276     5.846358     3.071561     39732634.600310
1.291291     5.808985     3.199746     41877746.545784
1.306306     5.749596     3.337841     44193074.499326
1.321321     5.656075     3.480469     46611135.570942
1.336336     5.522767     3.605749     48837650.907556
1.351351     5.366995     3.692246     50571102.113730
1.366366     5.214819     3.742798     51833089.602857
1.381381     5.072628     3.772739     52821883.777531
1.396396     4.939748     3.782590     53535457.998853
1.411411     4.831920     3.776454     54023328.244275
1.426426     4.754108     3.783379     54698164.796598
1.441441     4.676670     3.824564     55875637.294310
1.456456     4.566576     3.883148     57322486.333101
1.471471     4.421760     3.927812     58579550.562437
1.486486     4.258259     3.943213     59409344.669499
1.501502     4.090445     3.927596     59771761.518316
1.516517     3.926544     3.884240     59703077.923473
1.531532     3.769228     3.814252     59207796.248317
1.546547     3.624503     3.711823     58182683.435065
1.561562     3.511430     3.575362     56587781.224318
1.576577     3.450361     3.423186     54700221.282531
1.591592     3.442845     3.285913     53006753.147830
1.606607     3.469397     3.187268     51900509.731096
1.621622     3.502290     3.131610     51470782.563641
1.636637     3.520907     3.107038     51539755.092963
1.651652     3.517711     3.094509     51802866.375299
1.666667     3.500194     3.078016     51995187.809331
1.681682     3.481728     3.057063     52106482.364378
1.696697     3.462603     3.040221     52282082.224874
1.711712     3.435570     3.024361     52469594.189640
1.726727     3.404945     3.001608     52531666.631128
1.741742     3.377907     2.975079     52520131.177235
1.756757     3.352149     2.950094     52528008.981122
1.771772     3.322857     2.923607     52501327.029506
1.786787     3.293787     2.889090     52321162.289674
1.801802     3.273469     2.849338     52034870.933922
1.816817     3.261032     2.812541     51790905.838863
1.831832     3.251539     2.778623     51589191.661168
1.846847     3.246528     2.746780     51415994.786966
1.861862     3.244059     2.721471     51356406.938213
1.876877     3.237047     2.700076     51363573.617744
1.891892     3.227088     2.674113     51276641.718558
1.906907     3.222867     2.642814     51078671.720437
1.921922     3.228565     2.613887     50917386.706694
1.936937     3.238515     2.595296     50950207.497853
1.951952     3.241297     2.583579     51113346.177466
1.966967     3.238864     2.564422     51124627.038501
1.981982     3.247471     2.538088     50985887.320116
1.996997     3.270190     2.520300     51012103.690252
2.012012     3.296232     2.518159     51351994.948773
2.027027     3.317112     2.529621     51970701.365590
2.042042     3.326422     2.549268     52762290.691049
2.057057     3.324470     2.566659     53512835.500875
2.072072     3.321266     2.578724     54156824.706293
2.087087     3.320746     2.593771     54867568.366899
2.102102     3.316027     2.615920     55734197.778528
2.117117     3.303283     2.641053     56671611.698248
2.132132     3.282006     2.668854     57674316.414195
2.147147     3.244680     2.696121     58673863.788219
2.162162     3.190777     2.707835     59340883.038403
2.177177     3.135614     2.694838     59466169.973123
2.192192     3.094062     2.664309     59197958.563202
2.207207     3.068436     2.627874     58788327.313397
2.222222     3.056686     2.590075     58336901.728202
2.237237     3.060714     2.556032     57959132.461792
2.252252     3.076126     2.536215     57895738.098208
2.267267     3.089154     2.531880     58182104.194074
2.282282     3.094909     2.532567     58583288.743536
2.297297     3.098682     2.535199     59030001.061360
2.312312     3.098538     2.543312     59605951.665152
2.327327     3.087860     2.551277     60180897.672170
2.342342     3.071716     2.546868     60464487.096561
2.357357     3.066539     2.530111     60451704.596152
2.372372     3.079768     2.516667     60513478.212190
2.387387     3.102544     2.519825     60972902.669528
2.402402     3.121644     2.540497     61859717.555214
2.417417     3.129289     2.572234     63023962.441150
2.432432     3.122914     2.607332     64280701.858157
2.447447     3.104724     2.638014     65438587.845896
2.462462     3.081961     2.660850     66410003.268459
2.477477     3.060355     2.679748     67289491.295452
2.492492     3.039014     2.700349     68217743.820382
2.507508     3.012698     2.724538     69243428.703903
2.522523     2.976080     2.748395     70268025.225000
2.537538     2.929288     2.764502     71100537.181662
2.552553     2.877237     2.768671     71629112.088507
2.567568     2.824096     2.760131     71828207.936979
2.582583     2.772628     2.737387     71652923.621080
2.597598     2.729230     2.696954     71004994.486522
2.612613     2.706880     2.640969     69932951.564139
2.627628     2.716676     2.584103     68820407.437275
2.642643     2.755095     2.548842     68269200.459987
2.657658     2.801018     2.547575     68622984.584320
2.672673     2.835227     2.572514     69686248.155274
2.687688     2.852363     2.612089     71155805.297098
2.702703     2.849896     2.658971     72837567.076258
2.717718     2.826932     2.702379     74437909.222872
2.732733     2.791914     2.733197     75702751.339516
2.747748     2.754670     2.752259     76649552.661854
2.762763     2.719371     2.763697     77388706.827483
2.777778     2.688634     2.771638     78032867.329270
2.792793     2.660867     2.783227     78782693.471946
2.807808     2.626598     2.799566     79671245.174911
2.822823     2.582286     2.810769     80417818.525135
2.837838     2.535832     2.811639     80870606.179430
2.852853     2.491799     2.806707     81155869.165405
2.867868     2.447618     2.797441     81313686.988758
2.882883     2.404609     2.780506     81244565.475212
2.897898     2.367421     2.756817     80971948.073462
2.912913     2.337868     2.729775     80593095.590982
2.927928     2.316287     2.702569     80201157.116107
2.942943     2.301124     2.678337     79889672.772573
2.957958     2.289839     2.657624     79676283.710151
2.972973     2.282735     2.640123     79553367.851458
2.987988     2.280172     2.629643     79637780.901705
3.003003     2.276087     2.630105     80052029.417370
3.018018     2.262731     2.637467     80677481.136329
3.033033     2.239405     2.644046     81281123.645541
3.048048     2.209376     2.646456     81757966.270502
3.063063     2.173789     2.643277     82062011.157715
3.078078     2.134195     2.630588     82068389.485200
3.093093     2.097475     2.604798     81660222.558240
3.108108     2.073395     2.570748     80983988.842437
3.123123     2.062345     2.540462     80416528.877714
3.138138     2.055006     2.518316     80098758.709194
3.153153     2.046699     2.499540     79881941.234142
3.168168     2.039326     2.481397     79679768.957219
3.183183     2.034204     2.465229     79535758.205027
3.198198     2.029946     2.452316     79492334.628796
3.213213     2.024846     2.441781     79522444.041335
3.228228     2.019236     2.431383     79553853.364029
3.243243     2.016654     2.421350     79594043.700292
3.258258     2.017418     2.416964     79817702.871719
3.273273     2.016177     2.420083     80289008.807551
3.288288     2.010311     2.428345     80932648.994014
3.303303     1.998300     2.441707     81749590.448702
3.318318     1.974911     2.458140     82673842.420281
3.333333     1.937751     2.468977     83414061.322362
3.348348     1.893164     2.466142     83693605.007105
3.363363     1.850725     2.449062     83486671.567002
3.378378     1.817373     2.422983     82966377.186175
3.393393     1.794762     2.396717     82431743.167377
3.408408     1.776495     2.377185     82121736.087725
3.423423     1.753703     2.362347     81968665.441279
3.438438     1.723795     2.344399     81702696.812842
3.453453     1.690821     2.317196     81107277.678377
3.468468     1.661186     2.279142     80122163.884611
3.483483     1.641006     2.232274     78814268.940051
3.498498     1.634725     2.182304     77382086.952021
3.513514     1.642202     2.137012     76101306.740032
3.528529     1.658222     2.102172     75180543.272584
3.543544     1.675807     2.078202     74639565.722801
3.558559     1.691246     2.061419     74350488.095525
3.573574     1.704946     2.049282     74224637.238789
3.588589     1.716436     2.042065     74273980.671435
3.603604     1.723665     2.037680     74424602.954222
3.618619     1.728729     2.033041     74564579.617980
3.633634     1.734735     2.030128     74766690.646345
3.648649     1.740022     2.032614     75167580.412032
3.663664     1.739673     2.040892     75784267.451110
3.678679     1.729493     2.050074     76437227.433012
3.693694     1.711748     2.052866     76853726.737615
3.708709     1.693970     2.047605     76968394.501182
3.723724     1.680704     2.039533     76975355.287921
3.738739     1.669841     2.034233     77084902.589499
3.753754     1.655952     2.032730     77337282.910001
3.768769     1.634953     2.030720     77569870.476864
3.783784     1.608695     2.022036     77545870.543349
3.798799     1.583015     2.005630     77221936.547968
3.813814     1.559975     1.984791     76721617.546829
3.828829     1.538590     1.959800     76053862.431522
3.843844     1.520695     1.929560     75173984.152375
3.858859     1.508938     1.895044     74117677.768701
3.873874     1.506134     1.858667     72977752.461193
3.888889     1.513314     1.826153     71979069.951035
3.903904     1.526032     1.802650     71327012.850220
3.918919     1.538197     1.788332     71032646.742669
3.933934     1.545600     1.780145     70978346.357501
3.948949     1.547145     1.773209     70971681.230873
3.963964     1.545751     1.764314     70884127.179383
3.978979     1.544292     1.754274     70747753.704364
3.993994     1.542954     1.744974     70638252.852242
4.009009     1.540200     1.737016     70580440.355561
4.024024     1.534941     1.729094     70521681.972567
4.039039     1.527354     1.719927     70409551.752528
4.054054     1.517767     1.707804     70173170.965546
4.069069     1.509406     1.690828     69732932.237064
4.084084     1.506754     1.672370     69226201.229252
4.099099     1.507938     1.658630     68909865.672291
4.114114     1.506761     1.650422     68820046.073571
4.129129     1.499768     1.643599     68785640.381332
4.144144     1.487431     1.633787     68623664.751204
4.159159     1.472300     1.617692     68193796.774714
4.174174     1.459440     1.594055     67439974.986573
4.189189     1.453680     1.566695     66520871.410663
4.204204     1.454359     1.541749     65696329.562657
4.219219     1.456670     1.521400     65060741.209927
4.234234     1.457471     1.503574     64527246.825285
4.249249     1.456246     1.486282     64011324.561644
4.264264     1.452496     1.467533     63427192.952948
4.279279     1.448080     1.444277     62641845.840286
4.294294     1.447355     1.416658     61659563.498731
4.309309     1.452549     1.388340     60638303.599712
4.324324     1.462365     1.363225     59748814.578658
4.339339     1.472571     1.342888     59061825.173890
4.354354     1.479067     1.323777     58422763.174559
4.369369     1.484042     1.299680     57557075.343175
4.384384     1.495200     1.270361     56452000.418750
4.399399     1.516331     1.243260     55436893.227482
4.414414     1.543023     1.225247     54820176.348086
4.429429     1.568268     1.216739     54624644.834991
4.444444     1.588022     1.214210     54695907.057403
4.459459     1.601077     1.213686     54857003.055035
4.474474     1.608180     1.211418     54938863.577316
4.489489     1.612100     1.204935     54828193.800709
4.504505     1.615931     1.194318     54526882.512273
4.519520     1.620974     1.181048     54100760.053674
4.534535     1.627202     1.165407     53561618.081706
4.549550     1.636033     1.146877     52884534.318297
4.564565     1.649796     1.127019     52140357.610731
4.579580     1.668599     1.109071     51478825.194486
4.594595     1.690374     1.094861     50985854.423572
4.609610     1.713256     1.084406     50664033.959821
4.624625     1.736178     1.077410     50501111.636279
4.639640     1.757704     1.073418     50477359.360935
4.654655     1.776883     1.070042     50481450.799093
4.669670     1.796453     1.065035     50407314.355394
4.684685     1.819768     1.061046     50379987.076996
4.699700     1.845208     1.062316     50601964.457484
4.714715     1.868717     1.069246     51094765.249684
4.729730     1.888280     1.079869     51766749.121319
4.744745     1.902758     1.092757     52550863.279293
4.759760     1.910824     1.105065     53310964.424049
4.774775     1.914105     1.112971     53861735.845172
4.789790     1.916121     1.115292     54143798.635788
4.804805     1.919328     1.112511     54178063.760588
4.819820     1.926305     1.105052     53982994.048231
4.834835     1.940507     1.096055     53710316.390824
4.849850     1.960675     1.091627     53659456.029531
4.864865     1.980661     1.092775     53882153.862602
4.879880     1.998284     1.094636     54140513.210616
4.894895     2.017346     1.094470     54298843.210368
4.909910     2.041440     1.094970     54490310.265925
4.924925     2.070005     1.100113     54913648.226518
4.939940     2.100726     1.111689     55660683.542459
4.954955     2.131582     1.130635     56781337.700013
4.969970     2.159581     1.157506     58306999.689184
4.984985     2.181241     1.190272     60138619.230737
5.000000     2.196113     1.224839     62071540.054513
5.015015     2.206989     1.259378     64013521.181138
5.030030     2.215755     1.295594     66051551.228830
5.045045     2.221586     1.335694     68299206.890490
5.060060     2.221936     1.381500     70851654.076318
5.075075     2.211098     1.432662     73693573.264806
5.090090     2.184163     1.482655     76490760.670765
5.105105     2.142660     1.522527     78779491.498346
5.120120     2.093481     1.546657     80263440.326106
5.135135     2.044746     1.554733     80919148.340171
5.150150     2.002566     1.550639     80942010.859401
5.165165     1.969264     1.540031     80622675.406494
5.180180     1.943945     1.527861     80218061.095249
5.195195     1.923125     1.516924     79874677.635455
5.210210     1.903578     1.506093     79533579.117659
5.225225     1.885078     1.492909     79064552.929694
5.240240     1.869830     1.475770     78381447.456282
5.255255     1.861790     1.455897     77547524.912903
5.270270     1.862963     1.438992     76866100.009430
5.285285     1.868962     1.431102     76662441.815395
5.300300     1.872196     1.432113     76934516.183896
5.315315     1.868762     1.436932     77412082.816223
5.330330     1.859156     1.441095     77855682.391021
5.345345     1.844873     1.442040     78126155.132846
5.360360     1.827894     1.437743     78112185.704506
5.375375     1.811191     1.427067     77749341.765220
5.390390     1.798447     1.410907     77083625.798833
5.405405     1.791453     1.392688     76300193.794653
5.420420     1.789364     1.374808     75529824.758086
5.435435     1.791571     1.358941     74864926.799185
5.450450     1.795681     1.346908     74406998.789823
