# energy grid [eV]     ieps_x  ieps_y  ieps_z
#
    0.000000000   16.228701943   16.228701943   16.228701943
    0.015015015   16.227355485   16.227355485   16.227355485
    0.030030030   16.225024898   16.225024898   16.225024898
    0.045045045   16.222205714   16.222205714   16.222205714
    0.060060060   16.218904526   16.218904526   16.218904526
    0.075075075   16.215122090   16.215122090   16.215122090
    0.090090090   16.210859249   16.210859249   16.210859249
    0.105105105   16.206116949   16.206116949   16.206116949
    0.120120120   16.200896244   16.200896244   16.200896244
    0.135135135   16.195198290   16.195198290   16.195198290
    0.150150150   16.189024348   16.189024348   16.189024348
    0.165165165   16.182375784   16.182375784   16.182375784
    0.180180180   16.175254063   16.175254063   16.175254063
    0.195195195   16.167660753   16.167660753   16.167660753
    0.210210210   16.159597523   16.159597523   16.159597523
    0.225225225   16.151066141   16.151066141   16.151066141
    0.240240240   16.142068473   16.142068473   16.142068473
    0.255255255   16.132606482   16.132606482   16.132606482
    0.270270270   16.122682228   16.122682228   16.122682228
    0.285285285   16.112297866   16.112297866   16.112297866
    0.300300300   16.101455642   16.101455642   16.101455642
    0.315315315   16.090157898   16.090157898   16.090157898
    0.330330330   16.078407065   16.078407065   16.078407065
    0.345345345   16.066205662   16.066205662   16.066205662
    0.360360360   16.053556299   16.053556299   16.053556299
    0.375375375   16.040461670   16.040461670   16.040461670
    0.390390390   16.026924555   16.026924555   16.026924555
    0.405405405   16.012947817   16.012947817   16.012947817
    0.420420420   15.998534402   15.998534402   15.998534402
    0.435435435   15.983687333   15.983687333   15.983687333
    0.450450450   15.968409715   15.968409715   15.968409715
    0.465465465   15.952704726   15.952704726   15.952704726
    0.480480480   15.936575622   15.936575622   15.936575622
    0.495495495   15.920025730   15.920025730   15.920025730
    0.510510511   15.903058449   15.903058449   15.903058449
    0.525525526   15.885677248   15.885677247   15.885677248
    0.540540541   15.867885661   15.867885661   15.867885661
    0.555555556   15.849687291   15.849687291   15.849687291
    0.570570571   15.831085802   15.831085802   15.831085802
    0.585585586   15.812084922   15.812084922   15.812084922
    0.600600601   15.792688437   15.792688437   15.792688437
    0.615615616   15.772900192   15.772900192   15.772900192
    0.630630631   15.752724087   15.752724087   15.752724087
    0.645645646   15.732164078   15.732164078   15.732164078
    0.660660661   15.711224171   15.711224171   15.711224171
    0.675675676   15.689908422   15.689908422   15.689908422
    0.690690691   15.668220937   15.668220937   15.668220937
    0.705705706   15.646165866   15.646165866   15.646165866
    0.720720721   15.623747403   15.623747403   15.623747403
    0.735735736   15.600969786   15.600969786   15.600969786
    0.750750751   15.577837291   15.577837291   15.577837291
    0.765765766   15.554354234   15.554354234   15.554354234
    0.780780781   15.530524965   15.530524965   15.530524965
    0.795795796   15.506353869   15.506353869   15.506353869
    0.810810811   15.481845363   15.481845363   15.481845363
    0.825825826   15.457003896   15.457003896   15.457003896
    0.840840841   15.431833943   15.431833943   15.431833943
    0.855855856   15.406340005   15.406340005   15.406340005
    0.870870871   15.380526609   15.380526609   15.380526609
    0.885885886   15.354398304   15.354398304   15.354398304
    0.900900901   15.327959659   15.327959659   15.327959659
    0.915915916   15.301215263   15.301215263   15.301215263
    0.930930931   15.274169720   15.274169720   15.274169720
    0.945945946   15.246827651   15.246827651   15.246827651
    0.960960961   15.219193689   15.219193689   15.219193689
    0.975975976   15.191272479   15.191272479   15.191272479
    0.990990991   15.163068676   15.163068676   15.163068676
    1.006006006   15.134586942   15.134586942   15.134586942
    1.021021021   15.105831945   15.105831945   15.105831945
    1.036036036   15.076808361   15.076808361   15.076808361
    1.051051051   15.047520864   15.047520864   15.047520864
    1.066066066   15.017974132   15.017974132   15.017974132
    1.081081081   14.988172843   14.988172843   14.988172843
    1.096096096   14.958121671   14.958121671   14.958121671
    1.111111111   14.927825290   14.927825290   14.927825290
    1.126126126   14.897288366   14.897288366   14.897288366
    1.141141141   14.866515559   14.866515559   14.866515559
    1.156156156   14.835511523   14.835511523   14.835511523
    1.171171171   14.804280900   14.804280900   14.804280900
    1.186186186   14.772828324   14.772828324   14.772828324
    1.201201201   14.741158414   14.741158414   14.741158414
    1.216216216   14.709275778   14.709275778   14.709275778
    1.231231231   14.677185009   14.677185009   14.677185009
    1.246246246   14.644890684   14.644890684   14.644890684
    1.261261261   14.612397360   14.612397360   14.612397360
    1.276276276   14.579709580   14.579709580   14.579709580
    1.291291291   14.546831865   14.546831865   14.546831865
    1.306306306   14.513768716   14.513768716   14.513768716
    1.321321321   14.480524611   14.480524611   14.480524611
    1.336336336   14.447104007   14.447104007   14.447104007
    1.351351351   14.413511336   14.413511336   14.413511336
    1.366366366   14.379751006   14.379751006   14.379751006
    1.381381381   14.345827397   14.345827397   14.345827397
    1.396396396   14.311744865   14.311744865   14.311744865
    1.411411411   14.277507737   14.277507737   14.277507737
    1.426426426   14.243120311   14.243120311   14.243120311
    1.441441441   14.208586856   14.208586856   14.208586856
    1.456456456   14.173911612   14.173911612   14.173911612
    1.471471471   14.139098786   14.139098786   14.139098786
    1.486486486   14.104152555   14.104152555   14.104152555
    1.501501502   14.069077062   14.069077062   14.069077062
    1.516516517   14.033876418   14.033876418   14.033876418
    1.531531532   13.998554700   13.998554700   13.998554700
    1.546546547   13.963115951   13.963115951   13.963115951
    1.561561562   13.927564178   13.927564178   13.927564178
    1.576576577   13.891903354   13.891903354   13.891903354
    1.591591592   13.856137414   13.856137414   13.856137414
    1.606606607   13.820270257   13.820270257   13.820270257
    1.621621622   13.784305747   13.784305747   13.784305747
    1.636636637   13.748247708   13.748247708   13.748247708
    1.651651652   13.712099926   13.712099926   13.712099926
    1.666666667   13.675866152   13.675866152   13.675866152
    1.681681682   13.639550093   13.639550093   13.639550093
    1.696696697   13.603155423   13.603155423   13.603155423
    1.711711712   13.566685771   13.566685771   13.566685771
    1.726726727   13.530144730   13.530144730   13.530144730
    1.741741742   13.493535851   13.493535851   13.493535851
    1.756756757   13.456862647   13.456862647   13.456862647
    1.771771772   13.420128589   13.420128589   13.420128589
    1.786786787   13.383337108   13.383337108   13.383337108
    1.801801802   13.346491594   13.346491594   13.346491594
    1.816816817   13.309595395   13.309595395   13.309595395
    1.831831832   13.272651819   13.272651819   13.272651819
    1.846846847   13.235664135   13.235664135   13.235664135
    1.861861862   13.198635566   13.198635566   13.198635566
    1.876876877   13.161569297   13.161569297   13.161569297
    1.891891892   13.124468471   13.124468471   13.124468471
    1.906906907   13.087336189   13.087336189   13.087336189
    1.921921922   13.050175511   13.050175511   13.050175511
    1.936936937   13.012989455   13.012989455   13.012989455
    1.951951952   12.975780997   12.975780997   12.975780997
    1.966966967   12.938553074   12.938553074   12.938553074
    1.981981982   12.901308579   12.901308579   12.901308579
    1.996996997   12.864050364   12.864050364   12.864050364
    2.012012012   12.826781241   12.826781241   12.826781241
    2.027027027   12.789503981   12.789503981   12.789503981
    2.042042042   12.752221312   12.752221312   12.752221312
    2.057057057   12.714935922   12.714935922   12.714935922
    2.072072072   12.677650458   12.677650458   12.677650458
    2.087087087   12.640367528   12.640367528   12.640367528
    2.102102102   12.603089698   12.603089698   12.603089698
    2.117117117   12.565819492   12.565819492   12.565819492
    2.132132132   12.528559397   12.528559397   12.528559397
    2.147147147   12.491311859   12.491311859   12.491311859
    2.162162162   12.454079283   12.454079283   12.454079283
    2.177177177   12.416864034   12.416864034   12.416864035
    2.192192192   12.379668442   12.379668442   12.379668442
    2.207207207   12.342494792   12.342494792   12.342494792
    2.222222222   12.305345334   12.305345334   12.305345334
    2.237237237   12.268222279   12.268222279   12.268222279
    2.252252252   12.231127797   12.231127797   12.231127797
    2.267267267   12.194064023   12.194064023   12.194064023
    2.282282282   12.157033053   12.157033053   12.157033053
    2.297297297   12.120036945   12.120036945   12.120036945
    2.312312312   12.083077720   12.083077720   12.083077720
    2.327327327   12.046157362   12.046157362   12.046157362
    2.342342342   12.009277818   12.009277818   12.009277818
    2.357357357   11.972441000   11.972441000   11.972441000
    2.372372372   11.935648782   11.935648782   11.935648782
    2.387387387   11.898903003   11.898903003   11.898903003
    2.402402402   11.862205467   11.862205467   11.862205467
    2.417417417   11.825557942   11.825557942   11.825557942
    2.432432432   11.788962163   11.788962163   11.788962163
    2.447447447   11.752419827   11.752419827   11.752419827
    2.462462462   11.715932600   11.715932600   11.715932600
    2.477477477   11.679502114   11.679502114   11.679502114
    2.492492492   11.643129965   11.643129965   11.643129965
    2.507507508   11.606817718   11.606817718   11.606817718
    2.522522523   11.570566906   11.570566906   11.570566906
    2.537537538   11.534379027   11.534379027   11.534379027
    2.552552553   11.498255548   11.498255548   11.498255548
    2.567567568   11.462197905   11.462197905   11.462197905
    2.582582583   11.426207502   11.426207502   11.426207502
    2.597597598   11.390285711   11.390285711   11.390285711
    2.612612613   11.354433875   11.354433875   11.354433875
    2.627627628   11.318653306   11.318653306   11.318653306
    2.642642643   11.282945285   11.282945285   11.282945285
    2.657657658   11.247311065   11.247311065   11.247311065
    2.672672673   11.211751869   11.211751869   11.211751869
    2.687687688   11.176268890   11.176268890   11.176268890
    2.702702703   11.140863295   11.140863295   11.140863295
    2.717717718   11.105536219   11.105536219   11.105536219
    2.732732733   11.070288774   11.070288774   11.070288774
    2.747747748   11.035122040   11.035122040   11.035122040
    2.762762763   11.000037073   11.000037073   11.000037073
    2.777777778   10.965034899   10.965034899   10.965034899
    2.792792793   10.930116522   10.930116522   10.930116522
    2.807807808   10.895282916   10.895282916   10.895282916
    2.822822823   10.860535030   10.860535030   10.860535030
    2.837837838   10.825873790   10.825873790   10.825873790
    2.852852853   10.791300094   10.791300094   10.791300094
    2.867867868   10.756814816   10.756814816   10.756814816
    2.882882883   10.722418808   10.722418808   10.722418808
    2.897897898   10.688112896   10.688112896   10.688112896
    2.912912913   10.653897881   10.653897881   10.653897881
    2.927927928   10.619774544   10.619774544   10.619774544
    2.942942943   10.585743640   10.585743640   10.585743640
    2.957957958   10.551805903   10.551805903   10.551805903
    2.972972973   10.517962045   10.517962045   10.517962045
    2.987987988   10.484212754   10.484212754   10.484212754
    3.003003003   10.450558699   10.450558699   10.450558699
    3.018018018   10.417000526   10.417000526   10.417000526
    3.033033033   10.383538861   10.383538861   10.383538861
    3.048048048   10.350174308   10.350174308   10.350174308
    3.063063063   10.316907451   10.316907451   10.316907451
    3.078078078   10.283738855   10.283738855   10.283738855
    3.093093093   10.250669066   10.250669066   10.250669066
    3.108108108   10.217698607   10.217698607   10.217698607
    3.123123123   10.184827985   10.184827985   10.184827985
    3.138138138   10.152057688   10.152057688   10.152057688
    3.153153153   10.119388185   10.119388185   10.119388185
    3.168168168   10.086819927   10.086819927   10.086819927
    3.183183183   10.054353346   10.054353346   10.054353346
    3.198198198   10.021988857   10.021988857   10.021988857
    3.213213213    9.989726860    9.989726860    9.989726860
    3.228228228    9.957567734    9.957567734    9.957567734
    3.243243243    9.925511845    9.925511845    9.925511845
    3.258258258    9.893559541    9.893559541    9.893559541
    3.273273273    9.861711153    9.861711153    9.861711153
    3.288288288    9.829966997    9.829966997    9.829966997
    3.303303303    9.798327373    9.798327373    9.798327373
    3.318318318    9.766792568    9.766792568    9.766792568
    3.333333333    9.735362851    9.735362851    9.735362851
    3.348348348    9.704038477    9.704038477    9.704038477
    3.363363363    9.672819687    9.672819687    9.672819687
    3.378378378    9.641706708    9.641706708    9.641706708
    3.393393393    9.610699752    9.610699752    9.610699752
    3.408408408    9.579799018    9.579799018    9.579799018
    3.423423423    9.549004693    9.549004693    9.549004693
    3.438438438    9.518316947    9.518316947    9.518316947
    3.453453453    9.487735940    9.487735940    9.487735940
    3.468468468    9.457261819    9.457261819    9.457261819
    3.483483483    9.426894718    9.426894718    9.426894718
    3.498498498    9.396634758    9.396634758    9.396634758
    3.513513514    9.366482049    9.366482049    9.366482049
    3.528528529    9.336436689    9.336436689    9.336436689
    3.543543544    9.306498765    9.306498765    9.306498765
    3.558558559    9.276668351    9.276668351    9.276668351
    3.573573574    9.246945511    9.246945511    9.246945511
    3.588588589    9.217330299    9.217330299    9.217330299
    3.603603604    9.187822757    9.187822757    9.187822757
    3.618618619    9.158422916    9.158422916    9.158422916
    3.633633634    9.129130798    9.129130798    9.129130798
    3.648648649    9.099946415    9.099946415    9.099946415
    3.663663664    9.070869768    9.070869768    9.070869768
    3.678678679    9.041900850    9.041900850    9.041900850
    3.693693694    9.013039643    9.013039643    9.013039643
    3.708708709    8.984286121    8.984286121    8.984286121
    3.723723724    8.955640248    8.955640248    8.955640248
    3.738738739    8.927101979    8.927101979    8.927101979
    3.753753754    8.898671261    8.898671261    8.898671261
    3.768768769    8.870348033    8.870348033    8.870348033
    3.783783784    8.842132225    8.842132225    8.842132225
    3.798798799    8.814023758    8.814023758    8.814023758
    3.813813814    8.786022546    8.786022546    8.786022546
    3.828828829    8.758128496    8.758128496    8.758128496
    3.843843844    8.730341506    8.730341506    8.730341506
    3.858858859    8.702661467    8.702661467    8.702661467
    3.873873874    8.675088263    8.675088263    8.675088263
    3.888888889    8.647621771    8.647621771    8.647621771
    3.903903904    8.620261861    8.620261861    8.620261861
    3.918918919    8.593008396    8.593008396    8.593008396
    3.933933934    8.565861232    8.565861232    8.565861232
    3.948948949    8.538820219    8.538820219    8.538820219
    3.963963964    8.511885200    8.511885200    8.511885200
    3.978978979    8.485056014    8.485056014    8.485056014
    3.993993994    8.458332492    8.458332492    8.458332492
    4.009009009    8.431714459    8.431714459    8.431714459
    4.024024024    8.405201735    8.405201735    8.405201735
    4.039039039    8.378794134    8.378794134    8.378794134
    4.054054054    8.352491465    8.352491465    8.352491465
    4.069069069    8.326293532    8.326293532    8.326293532
    4.084084084    8.300200133    8.300200133    8.300200133
    4.099099099    8.274211061    8.274211061    8.274211061
    4.114114114    8.248326104    8.248326104    8.248326104
    4.129129129    8.222545046    8.222545046    8.222545046
    4.144144144    8.196867666    8.196867666    8.196867666
    4.159159159    8.171293738    8.171293738    8.171293738
    4.174174174    8.145823031    8.145823031    8.145823031
    4.189189189    8.120455312    8.120455312    8.120455312
    4.204204204    8.095190341    8.095190341    8.095190341
    4.219219219    8.070027877    8.070027877    8.070027877
    4.234234234    8.044967671    8.044967671    8.044967671
    4.249249249    8.020009474    8.020009474    8.020009474
    4.264264264    7.995153032    7.995153032    7.995153032
    4.279279279    7.970398085    7.970398085    7.970398085
    4.294294294    7.945744374    7.945744374    7.945744374
    4.309309309    7.921191632    7.921191632    7.921191632
    4.324324324    7.896739592    7.896739592    7.896739592
    4.339339339    7.872387981    7.872387981    7.872387981
    4.354354354    7.848136526    7.848136526    7.848136526
    4.369369369    7.823984949    7.823984949    7.823984949
    4.384384384    7.799932968    7.799932968    7.799932968
    4.399399399    7.775980301    7.775980301    7.775980301
    4.414414414    7.752126661    7.752126661    7.752126661
    4.429429429    7.728371759    7.728371759    7.728371759
    4.444444444    7.704715304    7.704715304    7.704715304
    4.459459459    7.681157002    7.681157002    7.681157002
    4.474474474    7.657696555    7.657696555    7.657696555
    4.489489489    7.634333666    7.634333666    7.634333666
    4.504504505    7.611068034    7.611068034    7.611068034
    4.519519520    7.587899355    7.587899355    7.587899355
    4.534534535    7.564827323    7.564827323    7.564827323
    4.549549550    7.541851632    7.541851632    7.541851632
    4.564564565    7.518971972    7.518971972    7.518971972
    4.579579580    7.496188032    7.496188032    7.496188032
    4.594594595    7.473499499    7.473499499    7.473499499
    4.609609610    7.450906059    7.450906059    7.450906059
    4.624624625    7.428407395    7.428407395    7.428407395
    4.639639640    7.406003189    7.406003189    7.406003189
    4.654654655    7.383693122    7.383693122    7.383693122
    4.669669670    7.361476873    7.361476873    7.361476873
    4.684684685    7.339354119    7.339354119    7.339354119
    4.699699700    7.317324537    7.317324537    7.317324537
    4.714714715    7.295387803    7.295387803    7.295387803
    4.729729730    7.273543589    7.273543589    7.273543589
    4.744744745    7.251791569    7.251791569    7.251791569
    4.759759760    7.230131415    7.230131415    7.230131415
    4.774774775    7.208562796    7.208562796    7.208562797
    4.789789790    7.187085384    7.187085384    7.187085384
    4.804804805    7.165698846    7.165698846    7.165698846
    4.819819820    7.144402851    7.144402851    7.144402851
    4.834834835    7.123197065    7.123197065    7.123197065
    4.849849850    7.102081155    7.102081155    7.102081155
    4.864864865    7.081054786    7.081054786    7.081054786
    4.879879880    7.060117624    7.060117624    7.060117624
    4.894894895    7.039269333    7.039269333    7.039269333
